# column 1: wavelength (micron)
# column 2: total flux; F_nu (Jy)
# column 3: transparent flux; F_nu (Jy)
# column 4: direct primary flux; F_nu (Jy)
# column 5: scattered primary flux; F_nu (Jy)
# column 6: direct secondary flux; F_nu (Jy)
# column 7: scattered secondary flux; F_nu (Jy)
9.000000000e-02 1.080070856e-03 3.396072499e-02 9.484565275e-04 1.316143281e-04 0.000000000e+00 0.000000000e+00
9.541091806e-02 5.831871046e-03 1.754125443e-01 5.060707187e-03 7.711638587e-04 0.000000000e+00 0.000000000e+00
1.011471476e-01 7.845090223e-03 2.091782253e-01 6.691077380e-03 1.154012842e-03 0.000000000e+00 0.000000000e+00
1.072282468e-01 1.044530651e-02 2.377374000e-01 8.713243478e-03 1.732063027e-03 0.000000000e+00 0.000000000e+00
1.136749497e-01 1.190073033e-02 2.381924275e-01 9.727348031e-03 2.173382300e-03 0.000000000e+00 0.000000000e+00
1.205092367e-01 1.126873892e-02 1.991878318e-01 9.152666542e-03 2.116072378e-03 0.000000000e+00 0.000000000e+00
1.277544101e-01 1.444534302e-02 2.294850179e-01 1.149040897e-02 2.954934055e-03 0.000000000e+00 0.000000000e+00
1.354351729e-01 1.622504381e-02 2.332244888e-01 1.266579272e-02 3.559251091e-03 0.000000000e+00 0.000000000e+00
1.435777131e-01 1.805707713e-02 2.241458373e-01 1.368303874e-02 4.374038392e-03 0.000000000e+00 0.000000000e+00
1.522097936e-01 2.093799635e-02 2.167248189e-01 1.491561795e-02 6.022378391e-03 0.000000000e+00 0.000000000e+00
1.613608460e-01 2.549250587e-02 2.107865822e-01 1.663020798e-02 8.862297885e-03 0.000000000e+00 0.000000000e+00
1.710620718e-01 3.033719435e-02 2.071097716e-01 1.813564283e-02 1.220155152e-02 0.000000000e+00 0.000000000e+00
1.813465479e-01 3.444088871e-02 2.029480651e-01 1.929526793e-02 1.514562078e-02 0.000000000e+00 0.000000000e+00
1.922493402e-01 3.464520990e-02 1.967349537e-01 1.901556874e-02 1.562964116e-02 0.000000000e+00 0.000000000e+00
2.038076228e-01 3.163510782e-02 1.895950469e-01 1.787100112e-02 1.376410670e-02 0.000000000e+00 0.000000000e+00
2.160608044e-01 3.212876160e-02 1.867252004e-01 1.850334762e-02 1.362541399e-02 0.000000000e+00 0.000000000e+00
2.290506634e-01 3.682270830e-02 1.790365286e-01 2.062408538e-02 1.619862293e-02 0.000000000e+00 0.000000000e+00
2.428214897e-01 4.331267009e-02 1.700181729e-01 2.290114517e-02 2.041152492e-02 0.000000000e+00 0.000000000e+00
2.574202362e-01 4.999617971e-02 1.668068985e-01 2.565476648e-02 2.434141323e-02 0.000000000e+00 0.000000000e+00
2.728966785e-01 5.543778065e-02 1.667769312e-01 2.880559049e-02 2.663219016e-02 0.000000000e+00 0.000000000e+00
2.893035848e-01 6.056734809e-02 1.668418305e-01 3.257431859e-02 2.799302949e-02 0.000000000e+00 0.000000000e+00
3.066968958e-01 6.602084514e-02 1.691646051e-01 3.652405900e-02 2.949678614e-02 0.000000000e+00 0.000000000e+00
3.251359155e-01 7.033655913e-02 1.682166112e-01 4.019926170e-02 3.013729743e-02 0.000000000e+00 0.000000000e+00
3.446835132e-01 7.476224319e-02 1.695159869e-01 4.366922659e-02 3.109301660e-02 0.000000000e+00 0.000000000e+00
3.654063382e-01 8.357679321e-02 1.801093022e-01 5.040524083e-02 3.317155238e-02 0.000000000e+00 0.000000000e+00
3.873750465e-01 1.334686993e-01 2.744013817e-01 8.349090266e-02 4.997779660e-02 0.000000000e+00 0.000000000e+00
4.106645425e-01 1.675534028e-01 3.286543191e-01 1.085517338e-01 5.900166900e-02 0.000000000e+00 0.000000000e+00
4.353542335e-01 1.720532505e-01 3.193222055e-01 1.149480143e-01 5.710523616e-02 0.000000000e+00 0.000000000e+00
4.615283011e-01 1.872453471e-01 3.338417881e-01 1.281986517e-01 5.904669542e-02 0.000000000e+00 0.000000000e+00
4.892759879e-01 1.854897975e-01 3.167920470e-01 1.306635225e-01 5.482627506e-02 0.000000000e+00 0.000000000e+00
5.186919022e-01 1.959361657e-01 3.214778536e-01 1.422218142e-01 5.371435157e-02 0.000000000e+00 0.000000000e+00
5.498763397e-01 2.050357758e-01 3.237341395e-01 1.531172550e-01 5.191852076e-02 0.000000000e+00 0.000000000e+00
5.829356266e-01 2.126051295e-01 3.251157084e-01 1.632908891e-01 4.931424039e-02 0.000000000e+00 0.000000000e+00
6.179824811e-01 2.203582505e-01 3.270762279e-01 1.733304505e-01 4.702780002e-02 0.000000000e+00 0.000000000e+00
6.551363985e-01 2.251743836e-01 3.245320010e-01 1.810005913e-01 4.417379236e-02 0.000000000e+00 0.000000000e+00
6.945240582e-01 2.368039998e-01 3.314859779e-01 1.948643579e-01 4.193964197e-02 0.000000000e+00 0.000000000e+00
7.362797556e-01 2.411818158e-01 3.298161898e-01 2.028867842e-01 3.829503160e-02 0.000000000e+00 0.000000000e+00
7.805458603e-01 2.454852418e-01 3.270641158e-01 2.102690694e-01 3.521617244e-02 0.000000000e+00 0.000000000e+00
8.274733014e-01 2.476403778e-01 3.239185442e-01 2.157856649e-01 3.185471293e-02 0.000000000e+00 0.000000000e+00
8.772220817e-01 2.562321141e-01 3.278952565e-01 2.264596425e-01 2.977247167e-02 0.000000000e+00 0.000000000e+00
9.299618239e-01 2.590911583e-01 3.256697560e-01 2.324567645e-01 2.663439384e-02 0.000000000e+00 0.000000000e+00
9.858723487e-01 2.604995124e-01 3.210372604e-01 2.367095271e-01 2.378998526e-02 2.421326386e-121 2.541081981e-122
1.045144288e+00 2.542620868e-01 3.087602532e-01 2.340691039e-01 2.019298296e-02 3.264002110e-115 3.374724656e-116
1.107979733e+00 2.441046464e-01 2.922130648e-01 2.271463609e-01 1.695828548e-02 3.126915264e-108 2.376773869e-109
1.174592928e+00 2.397977591e-01 2.830173461e-01 2.247859442e-01 1.501181493e-02 4.135256009e-101 6.459510593e-102
1.245210996e+00 2.324737066e-01 2.708150474e-01 2.198614297e-01 1.261227688e-02 1.951908672e-95 6.905748316e-97
1.320074714e+00 2.337682681e-01 2.691544482e-01 2.227869256e-01 1.098134257e-02 1.806883126e-89 6.278530321e-91
1.399439338e+00 2.330091718e-01 2.655655769e-01 2.236137778e-01 9.395393924e-03 1.684743325e-84 2.796586878e-86
1.483575466e+00 2.315412822e-01 2.615434326e-01 2.235399270e-01 8.001355190e-03 2.603444327e-79 7.953799451e-81
1.572769969e+00 2.360920018e-01 2.641530951e-01 2.290555967e-01 7.036405069e-03 1.340792322e-74 2.823362689e-76
1.667326963e+00 2.355707265e-01 2.616016226e-01 2.294976784e-01 6.073048082e-03 6.910827027e-70 1.619530852e-71
1.767568847e+00 2.245235946e-01 2.477677728e-01 2.195757314e-01 4.947863256e-03 1.477239860e-66 3.570514706e-68
1.873837405e+00 2.127150914e-01 2.329401735e-01 2.087719625e-01 3.943128918e-03 2.797299155e-62 5.939279141e-64
1.986494968e+00 1.979636723e-01 2.154087499e-01 1.948735375e-01 3.090134770e-03 1.432581381e-58 2.215566508e-60
2.105925651e+00 1.841521507e-01 1.992111288e-01 1.817459964e-01 2.406154370e-03 4.629529063e-55 5.936137278e-57
2.232536664e+00 1.666078147e-01 1.793281616e-01 1.647549320e-01 1.852882631e-03 9.410072811e-52 1.181327798e-53
2.366759696e+00 1.551903763e-01 1.661250358e-01 1.537549922e-01 1.435384143e-03 1.592835857e-48 1.425880541e-50
2.509052394e+00 1.317241999e-01 1.405562328e-01 1.307182230e-01 1.005976952e-03 1.221277970e-45 1.018556329e-47
2.659899915e+00 1.309710138e-01 1.391920028e-01 1.301482107e-01 8.228030622e-04 9.549115225e-43 6.617350041e-45
2.819816587e+00 1.258270008e-01 1.332176595e-01 1.251705061e-01 6.564947231e-04 4.496836027e-40 2.397766703e-42
2.989347660e+00 1.075965319e-01 1.134930061e-01 1.071320200e-01 4.645119069e-04 1.494956080e-37 6.188751584e-40
3.169071162e+00 9.602605411e-02 1.010099434e-01 9.569042921e-02 3.356249007e-04 3.321157743e-35 1.232236816e-37
3.359599877e+00 9.504222832e-02 9.971939808e-02 9.476882096e-02 2.734073529e-04 5.009008892e-33 1.502522432e-35
3.561583429e+00 9.042419503e-02 9.460930938e-02 9.021275341e-02 2.114416247e-04 6.458543315e-31 1.557477436e-33
3.775710497e+00 7.634211354e-02 7.969068225e-02 7.619716724e-02 1.449463040e-04 6.647248514e-29 1.320151931e-31
4.002711165e+00 7.036098012e-02 7.324048585e-02 7.025337047e-02 1.076096509e-04 5.016185025e-27 7.934768144e-30
4.243359411e+00 6.590908158e-02 6.847956065e-02 6.582812259e-02 8.095898451e-05 3.247866415e-25 4.064782364e-28
4.498475745e+00 5.636561859e-02 5.845702269e-02 5.631089444e-02 5.472414973e-05 1.425476037e-23 1.476826846e-26
4.768930007e+00 5.047785106e-02 5.224554468e-02 5.043897850e-02 3.887256510e-05 5.328397831e-22 4.394593785e-25
5.055644335e+00 4.524639560e-02 4.675547007e-02 4.521915071e-02 2.724488464e-05 1.587890768e-20 1.016232538e-23
5.359596304e+00 4.160388210e-02 4.294546082e-02 4.158420670e-02 1.967539801e-05 4.115465230e-19 2.056425060e-22
5.681822265e+00 3.906503286e-02 4.029977672e-02 3.905076913e-02 1.426373820e-05 8.757860636e-18 3.423891780e-21
6.023420872e+00 3.556751300e-02 3.667188723e-02 3.555780134e-02 9.711662196e-06 1.475666042e-16 4.334555279e-20
6.385556837e+00 3.181522573e-02 3.280324934e-02 3.180875351e-02 6.472223735e-06 2.146145899e-15 4.706807650e-19
6.769464890e+00 2.827824075e-02 2.914082265e-02 2.827414775e-02 4.092992140e-06 2.781457839e-14 4.245141152e-18
7.176453999e+00 2.544837621e-02 2.626338487e-02 2.544598797e-02 2.388239236e-06 3.022401900e-13 2.841024046e-17
7.607911827e+00 2.280572635e-02 2.384500801e-02 2.280459437e-02 1.131976739e-06 2.724622960e-12 1.244849979e-16
8.065309466e+00 1.950362503e-02 2.136625311e-02 1.950317040e-02 4.546056569e-07 2.127878079e-11 4.050611201e-16
8.550206451e+00 1.672798124e-02 1.980366561e-02 1.672768983e-02 2.912658034e-07 1.503183550e-10 2.473864427e-15
9.064256079e+00 1.422796494e-02 1.819976903e-02 1.422756687e-02 3.971330764e-07 9.343625788e-10 3.107076765e-14
9.609211044e+00 1.251260639e-02 1.670926707e-02 1.251201470e-02 5.861559015e-07 5.531362134e-09 2.870971278e-13
1.018692942e+01 1.148487354e-02 1.484139334e-02 1.148434626e-02 4.964397831e-07 3.083987124e-08 1.377645031e-12
1.079938098e+01 1.038997694e-02 1.280950121e-02 1.038949401e-02 3.230145640e-07 1.599140269e-07 4.345636589e-12
1.144865393e+01 9.555382349e-03 1.121727547e-02 9.554526481e-03 1.226441260e-07 7.332170256e-07 6.843535167e-12
1.213696202e+01 8.580632009e-03 9.706140478e-03 8.577566345e-03 1.919849071e-08 3.046462975e-06 2.812183341e-12
1.286665210e+01 7.657451380e-03 8.406412507e-03 7.646121705e-03 2.915005769e-10 1.132938390e-05 4.891251187e-14
1.364021210e+01 6.928930358e-03 7.422159756e-03 6.888746576e-03 0.000000000e+00 4.018378133e-05 0.000000000e+00
1.446027954e+01 6.128157789e-03 6.425703137e-03 5.993077078e-03 0.000000000e+00 1.350807112e-04 0.000000000e+00
1.532965052e+01 5.483820977e-03 5.459114323e-03 5.044449216e-03 0.000000000e+00 4.393717612e-04 0.000000000e+00
1.625128922e+01 5.779534600e-03 4.784852505e-03 4.365051013e-03 0.000000000e+00 1.414483587e-03 0.000000000e+00
1.722833804e+01 8.073953573e-03 4.181981939e-03 3.766292597e-03 0.000000000e+00 4.307660976e-03 0.000000000e+00
1.826412832e+01 1.540746300e-02 3.644149150e-03 3.264629614e-03 0.000000000e+00 1.214283339e-02 0.000000000e+00
1.936219168e+01 3.311453615e-02 3.169491305e-03 2.854778784e-03 0.000000000e+00 3.025975737e-02 0.000000000e+00
2.052627204e+01 7.362783044e-02 2.795917244e-03 2.547359512e-03 0.000000000e+00 7.108047093e-02 0.000000000e+00
2.176033844e+01 1.581422749e-01 2.475872312e-03 2.281846486e-03 0.000000000e+00 1.558604284e-01 0.000000000e+00
2.306859853e+01 3.196417997e-01 2.218028743e-03 2.064430682e-03 0.000000000e+00 3.175773690e-01 0.000000000e+00
2.445551294e+01 6.237039958e-01 1.948602341e-03 1.826683447e-03 0.000000000e+00 6.218773123e-01 0.000000000e+00
2.592581045e+01 1.183777693e+00 1.748256196e-03 1.650537129e-03 0.000000000e+00 1.182127156e+00 0.000000000e+00
2.748450419e+01 2.060478501e+00 1.574236410e-03 1.496199368e-03 0.000000000e+00 2.058982302e+00 0.000000000e+00
2.913690863e+01 3.491383124e+00 1.389474152e-03 1.327137744e-03 0.000000000e+00 3.490055986e+00 0.000000000e+00
3.088865780e+01 5.564228654e+00 1.243421160e-03 1.193924515e-03 0.000000000e+00 5.563034730e+00 0.000000000e+00
3.274572442e+01 8.729364795e+00 1.101581045e-03 1.062399742e-03 0.000000000e+00 8.728302395e+00 0.000000000e+00
3.471444033e+01 1.284045069e+01 9.801370408e-04 9.485951238e-04 0.000000000e+00 1.283950210e+01 0.000000000e+00
3.680151802e+01 1.835476507e+01 8.764986030e-04 8.510566899e-04 0.000000000e+00 1.835391401e+01 0.000000000e+00
3.901407356e+01 2.513290704e+01 7.790380428e-04 7.586482818e-04 0.000000000e+00 2.513214839e+01 0.000000000e+00
4.135965084e+01 3.316747456e+01 6.964409395e-04 6.801269929e-04 0.000000000e+00 3.316679444e+01 0.000000000e+00
4.384624730e+01 4.228558587e+01 6.107185310e-04 5.980803443e-04 0.000000000e+00 4.228498779e+01 0.000000000e+00
4.648234121e+01 5.198658224e+01 5.521941799e-04 5.420290919e-04 0.000000000e+00 5.198604021e+01 0.000000000e+00
4.927692053e+01 6.230267377e+01 4.881369004e-04 4.800861922e-04 0.000000000e+00 6.230219368e+01 0.000000000e+00
5.223951363e+01 7.235224794e+01 4.375667035e-04 4.311595591e-04 0.000000000e+00 7.235181678e+01 0.000000000e+00
5.538022172e+01 8.193498781e+01 3.884837221e-04 3.834497161e-04 0.000000000e+00 8.193460436e+01 0.000000000e+00
5.870975330e+01 9.077525459e+01 3.438589044e-04 3.398683658e-04 0.000000000e+00 9.077491472e+01 0.000000000e+00
6.223946068e+01 9.798270427e+01 3.062450409e-04 3.031463445e-04 0.000000000e+00 9.798240113e+01 0.000000000e+00
6.598137870e+01 1.038717062e+02 2.765344406e-04 2.740417426e-04 0.000000000e+00 1.038714322e+02 0.000000000e+00
6.994826574e+01 1.079990117e+02 2.414214292e-04 2.395123878e-04 0.000000000e+00 1.079987722e+02 0.000000000e+00
7.415364723e+01 1.101973668e+02 2.145601358e-04 2.130466395e-04 0.000000000e+00 1.101971537e+02 0.000000000e+00
7.861186177e+01 1.099870971e+02 1.926932344e-04 1.914917599e-04 0.000000000e+00 1.099869056e+02 0.000000000e+00
8.333811002e+01 1.090153991e+02 1.693998562e-04 1.684610188e-04 0.000000000e+00 1.090152306e+02 0.000000000e+00
8.834850651e+01 1.063563298e+02 1.552894366e-04 1.545358592e-04 0.000000000e+00 1.063561752e+02 0.000000000e+00
9.366013462e+01 1.023442306e+02 1.368305241e-04 1.362403198e-04 0.000000000e+00 1.023440944e+02 0.000000000e+00
9.929110477e+01 9.649609327e+01 7.666273193e-05 7.636459096e-05 0.000000000e+00 9.649601691e+01 0.000000000e+00
1.052606162e+02 9.078933637e+01 0.000000000e+00 0.000000000e+00 0.000000000e+00 9.078933637e+01 0.000000000e+00
1.115890226e+02 8.405494068e+01 0.000000000e+00 0.000000000e+00 0.000000000e+00 8.405494068e+01 0.000000000e+00
1.182979010e+02 7.714307517e+01 0.000000000e+00 0.000000000e+00 0.000000000e+00 7.714307517e+01 0.000000000e+00
1.254101260e+02 6.943433598e+01 0.000000000e+00 0.000000000e+00 0.000000000e+00 6.943433598e+01 0.000000000e+00
1.329499472e+02 6.297057363e+01 0.000000000e+00 0.000000000e+00 0.000000000e+00 6.297057363e+01 0.000000000e+00
1.409430725e+02 5.625797194e+01 0.000000000e+00 0.000000000e+00 0.000000000e+00 5.625797194e+01 0.000000000e+00
1.494167549e+02 4.987121730e+01 0.000000000e+00 0.000000000e+00 0.000000000e+00 4.987121730e+01 0.000000000e+00
1.583998862e+02 4.378059150e+01 0.000000000e+00 0.000000000e+00 0.000000000e+00 4.378059150e+01 0.000000000e+00
1.679230951e+02 3.792179818e+01 0.000000000e+00 0.000000000e+00 0.000000000e+00 3.792179818e+01 0.000000000e+00
1.780188519e+02 3.294155024e+01 0.000000000e+00 0.000000000e+00 0.000000000e+00 3.294155024e+01 0.000000000e+00
1.887215788e+02 2.820528770e+01 0.000000000e+00 0.000000000e+00 0.000000000e+00 2.820528770e+01 0.000000000e+00
2.000677676e+02 2.462919130e+01 0.000000000e+00 0.000000000e+00 0.000000000e+00 2.462919130e+01 0.000000000e+00
2.120961043e+02 2.084638439e+01 0.000000000e+00 0.000000000e+00 0.000000000e+00 2.084638439e+01 0.000000000e+00
2.248476003e+02 1.763275521e+01 0.000000000e+00 0.000000000e+00 0.000000000e+00 1.763275521e+01 0.000000000e+00
2.383657330e+02 1.470499528e+01 0.000000000e+00 0.000000000e+00 0.000000000e+00 1.470499528e+01 0.000000000e+00
2.526965935e+02 1.242117462e+01 0.000000000e+00 0.000000000e+00 0.000000000e+00 1.242117462e+01 0.000000000e+00
2.678890442e+02 1.042982894e+01 0.000000000e+00 0.000000000e+00 0.000000000e+00 1.042982894e+01 0.000000000e+00
2.839948849e+02 8.648304305e+00 0.000000000e+00 0.000000000e+00 0.000000000e+00 8.648304305e+00 0.000000000e+00
3.010690299e+02 7.217274794e+00 0.000000000e+00 0.000000000e+00 0.000000000e+00 7.217274794e+00 0.000000000e+00
3.191696949e+02 6.046017165e+00 0.000000000e+00 0.000000000e+00 0.000000000e+00 6.046017165e+00 0.000000000e+00
3.383585957e+02 4.961936640e+00 0.000000000e+00 0.000000000e+00 0.000000000e+00 4.961936640e+00 0.000000000e+00
3.587011583e+02 4.038903057e+00 0.000000000e+00 0.000000000e+00 0.000000000e+00 4.038903057e+00 0.000000000e+00
3.802667425e+02 3.376988775e+00 0.000000000e+00 0.000000000e+00 0.000000000e+00 3.376988775e+00 0.000000000e+00
4.031288779e+02 2.766488181e+00 0.000000000e+00 0.000000000e+00 0.000000000e+00 2.766488181e+00 0.000000000e+00
4.273655148e+02 2.294592621e+00 0.000000000e+00 0.000000000e+00 0.000000000e+00 2.294592621e+00 0.000000000e+00
4.530592901e+02 1.858295048e+00 0.000000000e+00 0.000000000e+00 0.000000000e+00 1.858295048e+00 0.000000000e+00
4.802978090e+02 1.503997311e+00 0.000000000e+00 0.000000000e+00 0.000000000e+00 1.503997311e+00 0.000000000e+00
5.091739433e+02 1.224574123e+00 0.000000000e+00 0.000000000e+00 0.000000000e+00 1.224574123e+00 0.000000000e+00
5.397861487e+02 9.867357484e-01 0.000000000e+00 0.000000000e+00 0.000000000e+00 9.867357484e-01 0.000000000e+00
5.722388000e+02 8.103856906e-01 0.000000000e+00 0.000000000e+00 0.000000000e+00 8.103856906e-01 0.000000000e+00
6.066425473e+02 6.597214522e-01 0.000000000e+00 0.000000000e+00 0.000000000e+00 6.597214522e-01 0.000000000e+00
6.431146930e+02 5.296455628e-01 0.000000000e+00 0.000000000e+00 0.000000000e+00 5.296455628e-01 0.000000000e+00
6.817795920e+02 4.318348100e-01 0.000000000e+00 0.000000000e+00 0.000000000e+00 4.318348100e-01 0.000000000e+00
7.227690754e+02 3.452129901e-01 0.000000000e+00 0.000000000e+00 0.000000000e+00 3.452129901e-01 0.000000000e+00
7.662229003e+02 2.782475103e-01 0.000000000e+00 0.000000000e+00 0.000000000e+00 2.782475103e-01 0.000000000e+00
8.122892262e+02 2.225111190e-01 0.000000000e+00 0.000000000e+00 0.000000000e+00 2.225111190e-01 0.000000000e+00
8.611251200e+02 1.797924146e-01 0.000000000e+00 0.000000000e+00 0.000000000e+00 1.797924146e-01 0.000000000e+00
9.128970918e+02 1.431578362e-01 0.000000000e+00 0.000000000e+00 0.000000000e+00 1.431578362e-01 0.000000000e+00
9.677816625e+02 1.160828576e-01 0.000000000e+00 0.000000000e+00 0.000000000e+00 1.160828576e-01 0.000000000e+00
1.025965966e+03 9.911787245e-02 0.000000000e+00 0.000000000e+00 0.000000000e+00 9.911787245e-02 0.000000000e+00
1.087648385e+03 8.749967793e-02 0.000000000e+00 0.000000000e+00 0.000000000e+00 8.749967793e-02 0.000000000e+00
1.153039233e+03 7.897151019e-02 0.000000000e+00 0.000000000e+00 0.000000000e+00 7.897151019e-02 0.000000000e+00
1.222361464e+03 7.146894728e-02 0.000000000e+00 0.000000000e+00 0.000000000e+00 7.146894728e-02 0.000000000e+00
1.295851439e+03 6.383537046e-02 0.000000000e+00 0.000000000e+00 0.000000000e+00 6.383537046e-02 0.000000000e+00
1.373759727e+03 5.715592331e-02 0.000000000e+00 0.000000000e+00 0.000000000e+00 5.715592331e-02 0.000000000e+00
1.456351964e+03 5.138547541e-02 0.000000000e+00 0.000000000e+00 0.000000000e+00 5.138547541e-02 0.000000000e+00
1.543909754e+03 4.693107239e-02 0.000000000e+00 0.000000000e+00 0.000000000e+00 4.693107239e-02 0.000000000e+00
1.636731634e+03 4.117422758e-02 0.000000000e+00 0.000000000e+00 0.000000000e+00 4.117422758e-02 0.000000000e+00
1.735134087e+03 3.728473194e-02 0.000000000e+00 0.000000000e+00 0.000000000e+00 3.728473194e-02 0.000000000e+00
1.839452624e+03 3.339822531e-02 0.000000000e+00 0.000000000e+00 0.000000000e+00 3.339822531e-02 0.000000000e+00
1.950042929e+03 2.996949300e-02 0.000000000e+00 0.000000000e+00 0.000000000e+00 2.996949300e-02 0.000000000e+00
2.067282068e+03 2.709678781e-02 0.000000000e+00 0.000000000e+00 0.000000000e+00 2.709678781e-02 0.000000000e+00
2.191569778e+03 2.374250035e-02 0.000000000e+00 0.000000000e+00 0.000000000e+00 2.374250035e-02 0.000000000e+00
2.323329827e+03 2.147905134e-02 0.000000000e+00 0.000000000e+00 0.000000000e+00 2.147905134e-02 0.000000000e+00
